# dimensionless total lensed [l(l+1)/2pi] C_l's
# for l=2 to 2500, i.e. number of multipoles equal to 2499
#
# -> if you prefer output in CAMB/HealPix/LensPix units/order, set 'format' to 'camb' in input file
# -> if you don't want to see such a header, set 'headers' to 'no' in input file
# -> for CMB lensing (phi), these are C_l^phi-phi for the lensing potential.
#    Remember the conversion factors:
#    C_l^dd (deflection) = l(l+1) C_l^phi-phi
#    C_l^gg (shear/convergence) = 1/4 (l(l+1))^2 C_l^phi-phi
#
# 1:l     2:TT                     3:EE                     4:TE                     5:BB                     6:phiphi                 7:TPhi                   8:Ephi               
    2       1.495442760272e-10       7.309265059077e-15       4.815171148062e-13       2.388861355584e-19       8.628903609891e-09       4.854772122259e-10      -2.515854151611e-12 
    3       1.409375667268e-10       1.238839452130e-14       6.068719461075e-13       4.780044765627e-19       5.411291720741e-09       3.469573584027e-10      -2.211507031143e-12 
    4       1.324638933999e-10       1.446592354284e-14       6.277975858837e-13       7.971819628364e-19       3.776588552564e-09       2.639785056959e-10      -1.764116067080e-12 
    5       1.257528917094e-10       1.337973190996e-14       5.879550144250e-13       1.196705759307e-18       2.821984230417e-09       2.093815841281e-10      -1.309529286451e-12 
    6       1.208087577008e-10       1.032478441011e-14       5.173987897658e-13       1.676916255523e-18       2.205212283199e-09       1.709429022051e-10      -8.948468925444e-13 
    7       1.173342232663e-10       6.843838595460e-15       4.365330660517e-13       2.238195783085e-18       1.778233642830e-09       1.425663898162e-10      -5.443860557501e-13 
    8       1.150094177849e-10       4.045255171748e-15       3.576614997186e-13       2.880956113492e-18       1.468351551345e-09       1.208855295166e-10      -2.689334595810e-13 
    9       1.135899949480e-10       2.339962952360e-15       2.880577371181e-13       3.605625230720e-18       1.235838581896e-09       1.038809738784e-10      -7.009986714808e-14 
   10       1.128613019595e-10       1.576066392427e-15       2.317780349443e-13       4.412633900065e-18       1.056623422357e-09       9.029297653933e-11       5.745597591139e-14 
   11       1.126830763048e-10       1.351208675859e-15       1.905546770829e-13       5.302402560767e-18       8.886898866058e-10       7.950622580549e-11       1.233291888800e-13 
   12       1.129466838742e-10       1.294588313284e-15       1.640599038098e-13       6.275329054496e-18       7.765278494214e-10       7.028426767182e-11       1.421600854757e-13 
   13       1.135320829795e-10       1.208007400963e-15       1.505250308351e-13       7.331777665538e-18       6.844563326788e-10       6.274647574146e-11       1.277329344119e-13 
   14       1.143407944771e-10       1.063264028707e-15       1.473981485517e-13       8.472069892965e-18       6.078507022089e-10       5.620932594371e-11       9.279532796840e-14 
   15       1.153792175247e-10       9.202377751420e-16       1.516646923417e-13       9.696477302401e-18       5.433693950180e-10       5.074770567452e-11       4.959311367125e-14 
   16       1.166084644075e-10       8.404031749332e-16       1.602810277380e-13       1.100521671832e-17       4.885455305551e-10       4.611880785772e-11       7.232457044187e-15 
   17       1.179455001198e-10       8.411741250922e-16       1.707678006358e-13       1.239844792041e-17       4.415155574511e-10       4.212235145123e-11      -2.792920719652e-14 
   18       1.193943881261e-10       8.950457247073e-16       1.812583734324e-13       1.387627267778e-17       4.006946007258e-10       3.857273425360e-11      -5.233421673746e-14 
   19       1.209630578571e-10       9.693348482183e-16       1.907730515086e-13       1.543874365647e-17       3.654375303432e-10       3.544037587617e-11      -6.510245742507e-14 
   20       1.225956287490e-10       1.030562381868e-15       1.985685572429e-13       1.708585616458e-17       3.343837603232e-10       3.267209115392e-11      -6.706958872939e-14 
   21       1.243040210370e-10       1.081655448316e-15       2.047244301912e-13       1.881757336722e-17       3.070458377168e-10       3.022365663679e-11      -6.038518099758e-14 
   22       1.260879327600e-10       1.140726895575e-15       2.096934196550e-13       2.063381642336e-17       2.827706821222e-10       2.801369672235e-11      -4.840846306239e-14 
   23       1.279365714991e-10       1.227172459669e-15       2.139233700754e-13       2.253449445902e-17       2.612248133617e-10       2.601113447765e-11      -3.407762181750e-14 
   24       1.298178541412e-10       1.359591118232e-15       2.179345847556e-13       2.451949465765e-17       2.419102419185e-10       2.418236717410e-11      -2.047693837145e-14 
   25       1.317486506133e-10       1.538392513324e-15       2.222217827744e-13       2.658871720675e-17       2.246000751500e-10       2.253677424007e-11      -9.447600222915e-15 
   26       1.337412869097e-10       1.756560534970e-15       2.272302523701e-13       2.874206317204e-17       2.089813615648e-10       2.107676172974e-11      -2.331878389364e-15 
   27       1.357769113451e-10       2.007678386933e-15       2.329801812145e-13       3.097946512175e-17       1.948668548028e-10       1.976942536216e-11       6.620874564411e-16 
   28       1.378198930974e-10       2.285336749186e-15       2.392873938322e-13       3.330087938569e-17       1.820132713767e-10       1.856394834548e-11      -9.525865544985e-17 
   29       1.398799662604e-10       2.589051789126e-15       2.458479738605e-13       3.570632133492e-17       1.703550513410e-10       1.745584709285e-11      -3.801164583776e-15 
   30       1.419713708363e-10       2.920067199858e-15       2.522262641952e-13       3.819584566035e-17       1.597671042278e-10       1.644630524374e-11      -9.226625361426e-15 
   31       1.440979611710e-10       3.279007071445e-15       2.579084726469e-13       4.076954628226e-17       1.500335693899e-10       1.552718131609e-11      -1.492866705065e-14 
   32       1.462626247869e-10       3.663758715488e-15       2.625223781135e-13       4.342757991873e-17       1.411042583374e-10       1.468921657387e-11      -2.002927037076e-14 
   33       1.484586619366e-10       4.070695959333e-15       2.656892041758e-13       4.617015976104e-17       1.329161010340e-10       1.391497860391e-11      -2.370100759885e-14 
   34       1.506731990192e-10       4.496668876213e-15       2.670412862055e-13       4.899754922980e-17       1.253545982668e-10       1.318309557866e-11      -2.518539308224e-14 
   35       1.529128655193e-10       4.944269820257e-15       2.664970850000e-13       5.191004355659e-17       1.183811086802e-10       1.249406663874e-11      -2.459200535161e-14 
   36       1.551854452317e-10       5.418475913906e-15       2.640842958852e-13       5.490798966339e-17       1.119397476358e-10       1.185261241070e-11      -2.238999268990e-14 
   37       1.574933362751e-10       5.924454820044e-15       2.598749245856e-13       5.799177114780e-17       1.059467510525e-10       1.126054051987e-11      -1.915231559209e-14 
   38       1.598370054847e-10       6.464531441417e-15       2.540004626055e-13       6.116172468323e-17       1.003866708111e-10       1.071669914757e-11      -1.535846013263e-14 
   39       1.622114438005e-10       7.040265219706e-15       2.466473387486e-13       6.441820130737e-17       9.524189568271e-11       1.021645940083e-11      -1.154171510422e-14 
   40       1.646043524205e-10       7.653263647652e-15       2.380572481015e-13       6.776159188156e-17       9.046338875670e-11       9.751314200655e-12      -8.351242874464e-15 
   41       1.670017820955e-10       8.304886767551e-15       2.284586258543e-13       7.119228864202e-17       8.598777931873e-11       9.311591183677e-12      -6.389558485823e-15 
   42       1.694089277789e-10       8.995242773193e-15       2.178260458527e-13       7.471054904942e-17       8.180192050163e-11       8.896429813487e-12      -5.644106404414e-15 
   43       1.718349348310e-10       9.723866982770e-15       2.060482352037e-13       7.831659164438e-17       7.789473302392e-11       8.506508640925e-12      -5.882707429028e-15 
   44       1.742868956427e-10       1.048997092700e-14       1.929917400291e-13       8.201063265521e-17       7.423783283724e-11       8.141177682858e-12      -6.802860734178e-15 
   45       1.767695091706e-10       1.129272580088e-14       1.785110620007e-13       8.579284885772e-17       7.079567617628e-11       7.798902096612e-12      -8.072935780456e-15 
   46       1.792845494321e-10       1.213225974679e-14       1.624863285226e-13       8.966325394309e-17       6.756285818017e-11       7.479020481889e-12      -9.481084742721e-15 
   47       1.818307968669e-10       1.300892560447e-14       1.447942519804e-13       9.362178444580e-17       6.453562146211e-11       7.180317988039e-12      -1.082316022998e-14 
   48       1.844038483994e-10       1.392302190573e-14       1.252965713888e-13       9.766833075392e-17       6.170060574886e-11       6.900434139700e-12      -1.185902979017e-14 
   49       1.869958533729e-10       1.487479085226e-14       1.038391777263e-13       1.018027345585e-16       5.903413372973e-11       6.635780768076e-12      -1.231068845020e-14 
   50       1.895987277866e-10       1.586442717572e-14       8.029467045440e-14       1.060247828348e-16       5.650934394145e-11       6.382582296665e-12      -1.195046032024e-14 
   51       1.922154381945e-10       1.689211224476e-14       5.470567438469e-14       1.103341937771e-16       5.412152877637e-11       6.140519889260e-12      -1.089820682731e-14 
   52       1.948513242399e-10       1.795798572044e-14       2.717891264284e-14       1.147306226371e-16       5.186843973630e-11       5.909934603923e-12      -9.401529706775e-15 
   53       1.975107900521e-10       1.906213400865e-14      -2.153683056677e-15       1.192136622092e-16       4.974270481707e-11       5.690762934048e-12      -7.755029114285e-15 
   54       2.001972038656e-10       2.020458875007e-14      -3.313380325529e-14       1.237828401168e-16       4.773148362976e-11       5.482507556320e-12      -6.302655651157e-15 
   55       2.029129400379e-10       2.138534248223e-14      -6.561525965393e-14       1.284376710212e-16       4.582038621933e-11       5.284467349566e-12      -5.357166478368e-15 
   56       2.056597472873e-10       2.260440364189e-14      -9.959335993327e-14       1.331778346558e-16       4.400715962649e-11       5.096561379621e-12      -4.929674433478e-15 
   57       2.084382961086e-10       2.386175258133e-14      -1.351056245490e-13       1.380030372662e-16       4.229079727936e-11       4.918658372757e-12      -4.937032865485e-15 
   58       2.112479516209e-10       2.515732477045e-14      -1.721953027006e-13       1.429129600004e-16       4.066739831656e-11       4.750316645223e-12      -5.277986552779e-15 
   59       2.140866787349e-10       2.649100995563e-14      -2.109117486851e-13       1.479072583348e-16       3.912998882653e-11       4.590764952679e-12      -5.832294017698e-15 
   60       2.169509473204e-10       2.786265131872e-14      -2.513107982505e-13       1.529855615006e-16       3.766834308683e-11       4.438883339617e-12      -6.459849841093e-15 
   61       2.198372211416e-10       2.927198889794e-14      -2.934433059609e-13       1.581475507001e-16       3.627182363769e-11       4.293506533486e-12      -7.029631530778e-15 
   62       2.227470297440e-10       3.071847691325e-14      -3.373168992769e-13       1.633932155709e-16       3.493905084951e-11       4.154457030052e-12      -7.516118331602e-15 
   63       2.256828719058e-10       3.220142375855e-14      -3.829262685453e-13       1.687226545317e-16       3.367009645719e-11       4.021710967423e-12      -7.923055677218e-15 
   64       2.286466886296e-10       3.372004156357e-14      -4.302642491535e-13       1.741360029591e-16       3.246357491759e-11       3.895087303651e-12      -8.255607654210e-15 
   65       2.316398185614e-10       3.527344358421e-14      -4.793218222412e-13       1.796334351136e-16       3.131656043416e-11       3.774238900268e-12      -8.520425627189e-15 
   66       2.346629534098e-10       3.686064159298e-14      -5.300881154116e-13       1.852151660657e-16       3.022450398159e-11       3.658643605810e-12      -8.725716863901e-15 
   67       2.377160933650e-10       3.848054326935e-14      -5.825504034427e-13       1.908814536219e-16       2.918115033046e-11       3.547595339348e-12      -8.881313160318e-15 
   68       2.407990142195e-10       4.013207033359e-14      -6.366940527068e-13       1.966325884113e-16       2.818020885876e-11       3.440402180521e-12      -8.997649244478e-15 
   69       2.439128782924e-10       4.181454657775e-14      -6.925023397610e-13       2.024688575072e-16       2.722094459314e-11       3.337047180008e-12      -9.082304215123e-15 
   70       2.470588713339e-10       4.352738413318e-14      -7.499565971074e-13       2.083905768604e-16       2.630357620448e-11       3.237646043930e-12      -9.142879368665e-15 
   71       2.502376887745e-10       4.526997015377e-14      -8.090362655176e-13       2.143981040805e-16       2.542758502082e-11       3.142248417294e-12      -9.188066426136e-15 
   72       2.534495042318e-10       4.704166729435e-14      -8.697188933038e-13       2.204918400593e-16       2.459167690582e-11       3.050834261808e-12      -9.227688275393e-15 
   73       2.566939380161e-10       4.884181418919e-14      -9.319801355910e-13       2.266722305940e-16       2.379374413728e-11       2.963310233692e-12      -9.272739713320e-15 
   74       2.599700256367e-10       5.066972593046e-14      -9.957937535885e-13       2.329397680104e-16       2.303082728572e-11       2.879506061492e-12      -9.335428188031e-15 
   75       2.632761863077e-10       5.252469454668e-14      -1.061131613862e-12       2.392949927861e-16       2.229907709285e-11       2.799170923890e-12      -9.429214541074e-15 
   76       2.666108664692e-10       5.440582969416e-14      -1.127960789780e-12       2.457383962819e-16       2.159471006964e-11       2.722039989968e-12      -9.564914070530e-15 
   77       2.699746754458e-10       5.631154613512e-14      -1.196234257248e-12       2.522701048700e-16       2.091716073744e-11       2.648056055409e-12      -9.738088829781e-15 
   78       2.733685838271e-10       5.823998323380e-14      -1.265898493093e-12       2.588901408867e-16       2.026643762483e-11       2.577181929715e-12      -9.939419592460e-15 
   79       2.767932656352e-10       6.018915369932e-14      -1.336896163188e-12       2.655985160157e-16       1.964216308588e-11       2.509331711138e-12      -1.015840217523e-14 
   80       2.802490806727e-10       6.215694078760e-14      -1.409166062302e-12       2.723952308839e-16       1.904355555564e-11       2.444368603224e-12      -1.038330739367e-14 
   81       2.837360568706e-10       6.414109550327e-14      -1.482643053950e-12       2.792802746569e-16       1.846941180575e-11       2.382102731371e-12      -1.060114101818e-14 
   82       2.872538726358e-10       6.613923380155e-14      -1.557258010243e-12       2.862536246339e-16       1.791808919991e-11       2.322288959373e-12      -1.079760372987e-14 
   83       2.908018391989e-10       6.814883379017e-14      -1.632937751739e-12       2.933152458432e-16       1.738748794950e-11       2.264624705974e-12      -1.095705107644e-14 
   84       2.943792682538e-10       7.016748489598e-14      -1.709613395046e-12       3.004651059769e-16       1.687556147912e-11       2.208821271446e-12      -1.106574003184e-14 
   85       2.979866835693e-10       7.219368895451e-14      -1.787247117437e-12       3.077032239241e-16       1.638198360457e-11       2.154836186137e-12      -1.112227478322e-14 
   86       3.016247788059e-10       7.422618741139e-14      -1.865809739589e-12       3.150296285788e-16       1.590672648912e-11       2.102675556237e-12      -1.112882726678e-14 
   87       3.052940390717e-10       7.626372258078e-14      -1.945272792287e-12       3.224443440717e-16       1.544954836918e-11       2.052323044465e-12      -1.108801950005e-14 
   88       3.089947297450e-10       7.830503908201e-14      -2.025608597578e-12       3.299473896233e-16       1.500998468560e-11       2.003738922082e-12      -1.100293877478e-14 
   89       3.127268852981e-10       8.034888527610e-14      -2.106790349929e-12       3.375387793973e-16       1.458733921504e-11       1.956859120906e-12      -1.087715284991e-14 
   90       3.164902981201e-10       8.239401470247e-14      -2.188792197381e-12       3.452185223535e-16       1.418067520132e-11       1.911594285325e-12      -1.071472514446e-14 
   91       3.202845073404e-10       8.443918751542e-14      -2.271589322709e-12       3.529866221009e-16       1.378880648675e-11       1.867828824309e-12      -1.052022993051e-14 
   92       3.241087876519e-10       8.648317192084e-14      -2.355158024575e-12       3.608430767513e-16       1.341028864349e-11       1.825419963424e-12      -1.029876752609e-14 
   93       3.279624067252e-10       8.852463566653e-14      -2.439467722260e-12       3.687879958827e-16       1.304376170536e-11       1.784233594661e-12      -1.005549142136e-14 
   94       3.318454660127e-10       9.056179872475e-14      -2.524455418047e-12       3.768219718730e-16       1.268905659094e-11       1.744260052705e-12      -9.794075302803e-15 
   95       3.357581663254e-10       9.259273078620e-14      -2.610047526155e-12       3.849457644032e-16       1.234623946362e-11       1.705514079713e-12      -9.518042486779e-15 
   96       3.397005431200e-10       9.461545648019e-14      -2.696167577630e-12       3.931601897648e-16       1.201527097013e-11       1.667999142080e-12      -9.231241822441e-15 
   97       3.436724590089e-10       9.662795530204e-14      -2.782736190636e-12       4.014661223195e-16       1.169600219827e-11       1.631706987564e-12      -8.937856185062e-15 
   98       3.476735962707e-10       9.862816154044e-14      -2.869671040749e-12       4.098644959608e-16       1.138817063456e-11       1.596617202418e-12      -8.642410969358e-15 
   99       3.517034493600e-10       1.006139642049e-13      -2.956886831249e-12       4.183563055744e-16       1.109139612203e-11       1.562696768523e-12      -8.349782582799e-15 
  100       3.557613174181e-10       1.025832069531e-13      -3.044295263412e-12       4.269426084987e-16       1.080517681785e-11       1.529899620519e-12      -8.065206938929e-15 
  101       3.598462967823e-10       1.045336880181e-13      -3.131805006803e-12       4.356245259860e-16       1.052888515109e-11       1.498166202932e-12      -7.794287950687e-15 
  102       3.639572734972e-10       1.064631601363e-13      -3.219321669567e-12       4.444032446629e-16       1.026176378040e-11       1.467423027308e-12      -7.543006023717e-15 
  103       3.680929158237e-10       1.083693304739e-13      -3.306747768726e-12       4.532800179911e-16       1.000292155174e-11       1.437582229345e-12      -7.317726549695e-15 
  104       3.722519583451e-10       1.102499691766e-13      -3.393989221350e-12       4.622560361313e-16       9.751535524767e-12       1.408561574368e-12      -7.123733028758e-15 
  105       3.764341141219e-10       1.121032518711e-13      -3.480975880716e-12       4.713320123677e-16       9.507496839529e-12       1.380348505406e-12      -6.960582470050e-15 
  106       3.806392723661e-10       1.139274635104e-13      -3.567643731819e-12       4.805085432789e-16       9.270844967129e-12       1.352943961724e-12      -6.826135486654e-15 
  107       3.848672136157e-10       1.157208949913e-13      -3.653928659655e-12       4.897862353598e-16       9.041567675721e-12       1.326342487548e-12      -6.717968012528e-15 
